wavelength_nm
276.8842
279.5531
283.2315
283.7295
284.2812
285.1259
285.2125
287.0406
288.4290
288.5049
288.7818
289.8934
289.9720
292.1620
292.5051
292.8254
294.2860
295.7583
295.7916
296.8687
297.4012
297.8660
298.3817
299.3799
299.9094
300.6932
300.8497
303.4066
304.6951
304.9092
306.0439
306.1700
306.7729
307.2115
307.8828
308.0217
308.2981
308.5026
308.8203
308.8470
309.0094
309.3396
310.4352
310.5747
310.7026
310.8297
311.0021
311.7684
311.9526
312.2963
312.4387
312.5507
313.1070
313.6216
313.6829
313.9017
314.0272
314.2836
314.5637
314.6043
315.0455
315.4301
315.4775
316.1394
316.5296
316.6098
316.9329
316.9673
317.1276
317.3427
317.4204
317.5726
317.8243
317.9048
318.0194
318.4949
319.2586
319.4228
319.5689
319.8969
320.2521
320.4321
320.5001
320.7585
321.0309
321.1194
321.3574
321.4075
321.4380
321.6738
322.0351
322.2404
322.5411
322.9010
323.0868
323.5840
323.8116
323.8934
324.1108
324.3689
324.4449
324.5760
324.9800
325.1916
325.3866
325.4810
325.6274
325.7367
325.8105
325.9061
326.2668
326.3570
326.5578
326.6635
327.0817
327.2027
327.3317
327.3916
327.5068
328.0371
328.1049
328.1702
328.5804
328.6583
328.7789
329.0600
329.1739
329.2521
329.3641
329.8050
329.9669
330.1651
330.4238
330.5304
330.7228
330.9365
331.4827
331.9345
331.9910
332.4753
332.5121
332.7193
332.9728
333.0477
333.3129
333.4604
333.7870
334.0725
334.4759
334.6556
334.8768
335.0924
335.1229
335.4180
335.8602
336.0998
336.4686
337.2823
337.3493
337.4975
337.6436
337.8573
338.0860
338.5532
338.6501
338.7921
338.8531
339.2035
339.6728
339.7516
339.8545
340.1711
340.2695
340.5558
340.8750
341.3013
341.5885
341.7498
341.9173
342.1210
342.2656
342.3990
342.8999
343.3999
343.4727
343.5977
343.6727
343.7307
343.9399
344.2579
344.5217
344.5744
344.6547
344.9645
345.1702
345.4095
345.7069
346.2851
346.4127
346.5765
346.8220
346.9345
346.9921
347.1219
347.1959
347.6747
347.8232
347.9173
347.9685
348.0053
348.0506
348.2761
348.5212
348.6551
348.9508
349.1536
349.3519
349.5700
349.6811
349.8010
349.8621
350.1867
350.3786
350.9779
351.1157
351.4388
351.8404
351.8886
352.0000
352.1270
352.3506
352.6634
352.8412
353.0515
353.1451
353.5320
353.6011
353.7160
353.9587
354.2498
354.3148
354.4018
354.5596
354.5845
354.7338
354.8514
354.9596
355.0718
355.1402
355.3110
355.4306
355.5014
355.5705
355.6904
355.7465
355.9508
356.1030
356.1781
356.2193
356.3376
356.4333
356.5030
356.7264
356.9820
357.2392
357.3220
357.5322
358.1608
358.2355
358.3102
358.4176
358.8441
358.9360
358.9750
359.0925
359.1452
359.2779
359.3883
359.4986
359.5618
359.8120
359.9724
360.0432
360.1034
360.3204
360.4682
360.5194
360.5879
360.6522
360.8378
361.2428
361.2867
361.5133
361.5850
361.7672
361.8363
362.0839
362.1119
362.2138
362.2795
362.3773
362.5628
362.6939
362.9850
363.4582
363.5943
363.8319
363.8644
363.9447
363.9833
364.2249
364.3512
364.5707
364.7646
364.8421
364.9250
365.2168
365.4462
365.5278
365.6050
365.6694
365.7643
365.8809
365.9629
366.0437
366.1621
366.2750
366.3202
366.3702
366.6981
366.8139
366.9640
366.9968
367.1539
367.2300
367.3260
367.3793
367.4014
367.4903
367.5137
367.5567
367.8048
367.8270
367.8480
367.9134
367.9710
368.0061
368.0447
368.2486
368.2545
368.4933
368.7984
368.8760
369.0623
369.1411
369.1876
369.2566
369.4178
369.5289
369.5974
369.7743
369.8106
369.9181
369.9880
370.0978
370.3230
370.3774
370.4861
370.6767
370.9862
371.1304
371.1623
371.2559
371.5560
371.6583
371.8207
371.9434
371.9836
372.0306
372.1215
372.1825
372.3656
372.4517
372.5393
372.6724
372.7902
372.9309
373.0368
373.0748
373.2985
373.3672
373.4597
373.7512
373.7889
374.1183
374.2923
374.5659
374.5970
374.7539
374.9084
374.9618
375.1022
375.2569
375.4593
375.5212
375.6294
375.7694
375.8467
375.9316
376.1469
376.2933
376.5270
376.6261
376.7901
376.9585
377.0056
377.0540
377.1370
377.2650
377.6271
378.0966
378.3012
378.3296
378.4575
378.5600
378.9167
379.0355
379.0794
379.2374
379.4698
379.5385
379.7207
379.8103
380.0198
380.1491
380.3075
380.3984
380.5820
380.7874
380.9490
381.0995
381.3067
381.5566
381.8685
382.0792
382.1431
382.2146
382.3067
382.5111
382.5700
382.6369
382.6830
382.8384
383.0060
383.0773
383.1640
383.3086
383.4679
383.6572
383.7875
383.9700
384.0800
384.1960
384.2896
384.5420
384.6887
384.9183
385.0570
385.2135
385.4510
385.6354
385.9839
386.2421
386.3406
386.6909
386.8530
386.9663
387.2722
387.3148
387.3474
387.3822
387.4243
387.4862
387.5373
387.7463
387.8662
387.9644
388.4822
388.6916
389.1970
389.3652
389.5419
389.8437
390.0878
390.1662
390.3102
390.5186
390.8749
391.0977
391.1909
391.3081
391.4760
391.5848
391.6417
391.7269
391.8070
391.9023
392.0442
392.3799
392.5093
392.5720
392.7421
392.8620
392.9669
393.1256
393.2550
393.2911
393.3661
393.4274
393.6353
393.7040
393.7923
393.8614
394.2073
394.2556
394.3394
394.4270
394.5135
394.6100
394.7331
394.7504
394.8030
394.8979
395.0395
395.1515
395.2740
395.5170
395.5890
395.6690
395.9300
396.0269
396.1521
396.2419
396.4030
396.7392
396.8467
396.9002
396.9664
397.2154
397.2639
397.3196
397.4480
397.6414
397.9360
398.0089
398.1106
398.4879
398.7206
398.8027
398.8599
399.0492
399.1730
399.4549
399.6061
399.6668
399.7865
399.8733
400.0281
400.1058
400.1893
400.3308
400.5092
400.7018
400.8210
400.9057
400.9819
401.1739
401.2495
401.3870
401.4716
401.7063
401.8099
401.9129
402.0354
402.2076
402.3338
402.4802
402.5655
402.6147
402.7009
402.9657
402.9825
403.0292
403.0842
403.2595
403.3862
403.5470
403.6048
403.6565
403.9864
404.1203
404.2910
404.3394
404.4418
404.8287
404.9944
405.0887
405.2940
405.3527
405.9253
406.3407
406.4331
406.7450
406.9201
406.9461
407.0238
407.2010
407.2400
407.3856
407.5503
407.6640
407.6960
407.9600
408.0670
408.1367
408.2400
408.3468
408.5042
408.5434
408.6520
408.7284
408.8726
408.9137
409.4747
409.6076
409.7150
409.7747
410.0341
410.2617
410.3910
410.5337
410.7050
410.7853
410.8419
410.9323
411.0826
411.2754
411.5759
411.6713
412.3572
412.7412
412.8650
413.1002
413.1712
413.1730
413.2753
413.4068
413.5480
413.6285
413.6395
413.6436
413.8040
414.0235
414.2701
414.3649
414.8181
414.9987
415.4720
415.6110
415.6516
415.7280
415.7395
415.8590
416.1738
416.2509
416.4179
416.5766
416.8634
417.0533
417.8059
417.9253
417.9715
418.1883
418.4137
418.9561
419.0712
419.1028
419.2362
419.3016
419.4936
419.8317
420.0675
420.1846
420.4041
420.8411
420.8890
421.0004
421.0923
421.3067
421.4828
421.6069
421.7450
421.8690
422.0068
422.2670
422.3440
422.3564
422.3593
422.6299
422.6726
422.7020
422.7387
422.8180
422.9147
422.9890
423.0426
423.5463
423.7230
424.1094
424.7988
424.8390
425.0314
425.1185
425.3538
425.5237
425.5751
425.5797
425.6253
425.7496
425.8520
425.9361
426.0333
426.6286
426.9942
427.2168
427.2874
427.3357
427.4024
427.5190
427.6807
427.7314
427.7550
427.8323
428.0568
428.1067
428.1414
428.2041
428.2900
428.3009
428.3518
428.6228
428.8668
429.1809
429.4719
429.7306
429.7990
429.9635
429.9839
430.0100
430.0660
430.4956
430.6366
430.7176
430.8122
430.8600
430.9250
430.9940
431.1799
431.2997
431.4319
431.5254
431.8415
432.0126
432.5274
432.8915
433.0843
433.1250
433.2060
433.3560
433.5337
433.5709
433.7277
433.8107
434.0895
434.2444
434.3951
434.4326
434.5167
434.5851
434.6436
434.8110
434.9072
435.2230
435.2612
435.3448
435.4482
435.8320
435.9372
436.2070
436.3794
436.5930
436.7870
436.9494
436.9875
437.0760
437.1360
437.4124
437.4785
437.5960
437.8176
437.9740
438.1402
438.1860
438.4656
438.5080
438.7787
439.1110
439.2974
439.3759
439.7915
440.0090
440.1020
440.1581
440.2927
440.4910
440.8482
440.8883
441.2739
441.2893
441.4486
441.6237
441.6844
442.0900
442.2048
442.3720
442.6010
443.0180
443.1020
443.2252
443.2963
443.3830
443.8746
443.9123
443.9480
444.0324
444.0866
444.1608
444.3665
444.5033
444.5315
444.5901
444.7834
444.8554
444.8880
445.0793
445.2565
445.8001
446.0530
446.1241
446.1527
446.3666
446.5340
446.9525
447.0990
447.4770
447.5221
447.8595
447.9637
448.0822
448.1830
448.2169
448.3346
448.5713
448.6897
448.7495
448.8312
448.8680
448.9664
449.0990
449.3333
449.7914
449.8550
449.8940
449.9983
450.2950
450.5216
450.6494
451.0526
451.0733
451.3223
451.3680
451.5118
451.6064
451.9259
452.1194
452.2323
453.0570
453.2257
453.3077
453.3237
453.3304
453.4120
453.5254
453.7144
453.7670
454.0999
454.4514
454.5080
454.5915
454.7249
454.7780
455.2153
455.5812
455.8346
456.1347
456.3661
456.7240
456.8142
457.0972
457.7823
457.9390
457.9827
458.1173
458.8426
458.9930
459.2666
459.3643
459.5420
459.6097
459.8770
460.3144
460.7934
460.8620
460.9600
461.1859
461.2543
461.3604
461.5024
461.5334
461.9479
462.1163
462.8298
462.8441
463.1761
463.3765
463.7250
463.8685
464.0046
464.1253
464.4707
464.6686
464.7251
465.0234
465.1555
465.1989
465.5212
465.7940
465.9570
466.3202
466.6005
466.6798
466.8171
466.9984
467.3660
467.6055
468.0237
468.0646
468.3351
468.6194
468.9251
469.0622
469.1635
469.4091
469.5038
469.5454
470.0771
470.2316
470.3360
470.3989
470.5760
470.6251
470.8294
471.2481
471.2840
472.0458
472.1276
472.1620
472.2088
472.3438
472.3784
472.4772
472.6910
472.8133
472.9128
473.2080
473.5930
473.9676
474.0529
474.0952
474.2117
474.3687
474.5337
474.9200
474.9971
475.2414
475.8128
476.4346
476.4890
476.5595
476.6600
477.3241
477.4259
477.5794
477.7191
477.8294
477.9728
478.2761
478.3861
478.6531
478.7148
478.9386
479.3244
479.5913
480.6070
480.8133
480.9614
481.2375
481.3007
481.3720
481.3896
481.7020
481.8647
481.9193
482.0464
482.0884
482.1587
482.2854
482.3606
482.3996
482.6700
482.9797
483.1121
483.1597
483.2802
483.3178
484.0843
484.3941
484.5162
484.7900
484.8362
484.9140
485.0439
485.2868
485.8332
486.1216
486.1717
486.3172
486.5477
486.5910
486.7590
486.8881
487.1289
487.2917
487.4364
487.6260
487.8009
487.8733
487.9900
488.1204
488.2250
488.7947
488.9060
488.9490
489.2760
489.3445
489.4955
489.8459
489.9240
490.2054
490.2770
490.4750
491.0156
491.0793
491.1378
491.2529
491.9815
492.0623
492.1613
492.5950
492.7780
492.9086
493.3240
493.3852
493.6774
493.7829
493.9642
494.3064
494.5458
494.6663
494.7575
495.0251
495.0626
495.4660
496.0423
496.1726
496.5120
496.5731
496.8755
497.0063
497.2177
498.0186
498.2487
498.5372
498.7147
498.9308
499.3749
500.2097
500.3598
500.4127
500.9350
501.5889
501.7160
501.7254
501.9324
501.9806
502.2005
502.8655
502.9891
503.9230
504.1122
504.4719
504.5248
504.7043
504.8813
504.8936
504.9796
505.0784
505.1888
505.5347
505.7986
505.8361
505.9861
506.1656
506.2070
506.2932
506.4602
506.4945
506.6135
506.6773
506.7973
506.9338
508.1440
508.5020
508.5295
509.0550
509.4106
509.5064
509.6484
509.8043
509.8931
509.8970
510.0621
510.1129
511.1278
511.3382
511.5044
511.8200
512.2499
512.5489
512.5950
512.8489
513.4746
513.7473
514.0773
514.1810
514.3267
514.3916
514.5360
514.8211
515.1612
515.4243
515.8604
515.9620
516.0710
516.1539
516.2284
516.3458
516.5820
516.8586
516.8922
517.3671
517.5324
517.5911
517.6280
517.6403
517.6961
517.7623
518.3989
518.4453
518.6413
518.7337
518.7467
518.7746
519.0872
519.3825
519.4020
519.4457
519.5813
519.8800
519.9163
520.3848
520.5152
520.6495
520.9724
521.1230
521.3349
521.6596
521.8527
521.9109
522.0926
522.1270
522.8224
523.1159
523.3225
523.4107
523.7903
523.8813
523.9552
524.0196
524.7196
524.7654
525.2786
525.4259
525.8360
526.0104
526.1472
526.6710
526.9792
527.3131
527.4118
527.7500
528.1068
529.1816
529.4397
529.6278
529.7743
529.8282
530.0523
530.1404
530.3483
530.5770
530.6986
530.7465
531.0266
531.2002
531.2528
531.2904
531.7494
532.0770
532.2898
532.5143
532.6277
532.6975
532.9374
533.0080
534.0498
534.3581
534.7971
535.1126
535.1836
535.5636
535.8706
535.9827
536.0150
536.1155
536.2575
536.9282
536.9447
537.0709
537.2702
537.4822
537.5352
537.6130
537.6780
537.9110
538.2927
538.4301
538.6610
538.8050
539.0440
539.2572
539.3972
539.4760
539.8701
539.8922
539.9010
539.9174
540.0145
540.2690
540.3199
540.7653
541.0768
541.5491
541.7485
542.1346
542.1836
542.4008
542.5678
542.6407
543.1112
543.4151
543.5892
543.7387
543.9970
544.0601
544.3118
544.3210
544.7153
544.9478
545.1650
545.2218
545.7370
545.8967
546.1735
546.4205
547.0759
547.3440
547.4865
547.9075
548.4146
548.8628
549.2643
549.3204
549.4330
549.5872
549.9255
549.9647
550.1281
550.4301
550.6112
550.7538
550.8558
550.9993
551.4873
551.8989
552.4582
552.4930
552.7295
552.8227
553.7130
553.7556
553.8608
553.9262
553.9910
554.1581
554.2890
554.8175
555.1372
555.2623
555.4070
555.7045
555.8342
555.8702
555.9891
556.4201
556.7998
557.1191
557.2465
557.3353
557.6204
557.7700
557.9358
558.0077
558.0754
558.3762
558.7026
558.8750
559.3613
559.5063
559.5846
559.7460
559.9654
560.1603
560.2852
560.4515
560.6386
560.6732
560.9573
561.0104
561.0231
561.0680
561.2068
561.5319
561.9975
563.0297
563.2872
563.3295
563.9746
564.1734
564.5668
564.6451
564.8991
565.0703
565.7925
565.9130
566.4621
566.5180
566.5628
566.7128
567.4986
567.7053
567.9005
568.1900
568.5192
569.1710
570.0458
570.0917
570.2651
570.7103
571.7171
571.9623
572.0183
572.4253
572.4463
572.5388
573.2975
573.6029
573.9517
574.1170
574.1829
574.8741
574.9388
575.3026
576.0550
576.2794
576.3529
576.7778
576.8181
577.1760
577.2116
577.3946
577.7400
578.1658
578.2289
578.9645
579.2430
579.6068
579.6418
579.7319
579.8478
580.0829
580.2082
580.4141
580.7681
581.2972
581.5422
582.2793
583.0827
583.2370
583.4263
583.8950
584.0640
584.3807
584.5918
585.2680
585.3474
585.4120
585.9668
586.0315
586.3718
586.6811
586.8374
586.9850
587.0552
587.1182
588.2625
588.5701
588.6531
588.8592
588.9953
589.1451
589.4698
589.5281
589.9844
590.4159
590.5570
590.8935
591.1229
591.2084
591.4671
591.6728
591.8944
592.2802
592.5403
592.6232
592.7130
592.8805
592.9480
592.9934
593.4409
593.4461
593.6386
593.7162
593.7663
593.8825
594.2668
594.4647
594.8799
594.9260
595.5561
595.9673
596.2056
596.9737
597.1590
597.3664
597.5064
598.1900
598.6266
598.7289
598.9044
599.1007
599.4128
599.6629
599.9000
600.0762
600.1203
600.5165
600.5740
600.7072
601.0160
601.1533
601.3680
601.5422
602.1035
602.3224
602.5140
603.0445
603.2124
603.2872
603.3413
603.5192
603.7697
603.8680
604.2589
604.3230
604.4432
604.9051
605.2721
605.3380
605.5593
605.9373
606.1536
606.5779
606.9020
607.3103
607.7105
607.7872
607.8421
607.9222
608.5374
608.7262
608.8030
609.0760
609.8120
609.9083
610.1160
610.1725
610.2594
610.3560
610.3641
610.4568
610.5645
610.7533
611.2837
611.4920
611.6166
611.9699
612.0556
612.1407
612.2214
612.3380
612.4480
612.5739
612.7380
612.9545
613.7926
613.8670
614.5430
615.0683
615.1993
615.4068
615.4516
615.5581
615.7087
616.1353
616.2170
616.4479
616.9822
617.2280
617.3106
617.8431
618.0705
618.2621
618.4778
618.8125
619.1905
619.3856
619.8222
620.3492
620.5860
620.7220
620.8686
621.2507
621.5945
622.0011
622.1319
622.4527
622.6369
623.2974
623.4855
624.0953
624.3130
624.8400
625.0485
625.7423
625.8606
626.1064
626.1418
626.6173
627.1544
627.4116
627.4164
627.7238
627.9166
628.5278
628.7255
629.1191
629.3242
629.6876
630.0916
630.3250
630.7662
630.9140
631.0810
631.5775
631.7182
632.1820
632.4450
632.6367
632.7277
633.1413
633.7620
633.9668
634.2859
634.8737
635.5910
636.9139
636.9577
637.1943
637.6930
637.9673
638.4719
638.7395
639.9230
640.6446
641.1899
641.3614
641.6315
643.1570
643.7761
643.9071
644.1950
644.3890
644.6771
645.0006
645.0955
645.7282
646.2595
646.6560
648.3100
648.7441
648.8883
649.0737
649.3197
649.3777
650.1992
650.3511
650.6986
650.9050
651.2364
651.3840
652.2043
653.1341
653.7614
653.8115
654.5718
655.1705
655.4160
655.8875
656.9632
657.6122
657.7214
657.7656
658.0229
658.3906
658.4613
658.8539
659.1484
659.3462
659.3939
659.6100
659.9482
660.4853
660.5416
661.3374
661.7058
661.7515
661.8166
661.9946
663.8240
663.8912
663.9720
664.3790
664.4663
664.6540
664.8495
664.8958
665.8677
666.0640
666.2268
666.4020
666.6360
666.8816
667.3579
667.4697
667.7282
667.8706
668.3367
668.4360
668.7520
669.2726
669.4496
669.6140
669.7712
669.8850
670.4051
671.1252
671.3970
671.7385
671.9200
672.7458
672.8118
672.8759
673.3748
674.2884
675.2832
675.4300
675.6453
675.7109
675.8203
676.5669
676.6560
677.2174
677.8312
678.0125
678.0413
678.7736
678.8840
679.1235
680.9100
680.9509
681.8260
682.3508
682.4677
682.7240
682.9035
683.4924
685.1860
685.3523
685.4109
686.1300
686.3520
686.6366
686.6763
686.8450
687.1290
687.4753
687.9590
688.2811
688.6408
688.6570
688.7100
688.8170
688.9303
690.9849
691.1226
691.6128
693.7666
694.2538
694.3610
694.5490
694.8205
695.1460
695.4656
696.5430
698.9655
699.2170
699.3037
700.0803
700.2883
701.8567
703.0262
703.6283
704.5797
705.3619
705.8489
706.0041
706.0653
706.4451
706.7217
706.8730
707.2394
707.5333
708.4169
708.6700
708.9339
710.0514
710.7496
710.9860
711.4398
712.2044
712.4560
712.5800
713.0184
713.2100
714.2331
714.7041
714.8559
715.0284
715.4762
715.4953
715.6941
715.8830
715.9947
716.2570
716.8895
717.3372
719.1133
720.0045
720.6483
720.6986
720.8006
721.2689
721.8054
721.9151
722.9930
723.0862
723.3580
724.2092
724.4696
724.6127
725.5354
725.6986
725.8177
727.0660
727.2936
728.4903
728.5440
728.8980
729.6265
729.8143
730.5404
730.8641
731.1710
731.5066
731.6000
732.4807
732.8285
732.9491
733.5577
734.1151
734.2576
735.0780
735.3316
737.2118
737.6877
738.3980
739.2970
740.2252
741.1736
741.2310
741.7790
741.8550
742.1827
742.2260
742.5240
742.8940
743.0253
743.5330
743.6250
744.7801
745.5208
746.1874
747.1180
748.1354
748.3625
748.4240
748.7973
748.9614
750.3867
751.0420
751.1349
751.1790
751.4651
752.3134
752.5508
754.9313
756.5851
756.7741
756.9511
758.5743
758.9330
759.8205
760.7823
761.8330
762.5705
762.7175
762.8860
763.0310
763.5105
764.7379
765.2320
765.3828
765.4699
765.8324
766.0890
767.0040
767.8126
768.5307
769.7924
770.4810
771.0269
771.3937
772.4206
773.1738
778.2316
778.8934
779.8358
781.4330
781.7770
783.4457
784.0457
784.1791
784.7539
786.1910
786.5969
786.8200
788.6283
789.1075
790.0320
791.6450
793.7733
794.1726
794.8175
797.8973
798.7973
800.6156
801.4786
802.2201
802.2330
803.2431
803.7230
804.6130
805.3307
806.2630
806.6826
806.8742
807.5652
807.9680
808.5219
809.3623
810.3692
811.5311
812.2723
812.9405
813.8475
814.3138
815.9727
816.9786
817.8840
818.6911
820.2147
820.3201
823.1406
825.2393
825.4742
825.9511
826.3924
826.4521
827.5626
832.0855
833.0450
833.2210
835.8726
836.7393
836.9340
840.8208
841.6727
841.7998
842.1225
842.4647
844.5487
844.6511
846.4236
847.1826
847.8358
849.0300
851.0624
851.6554
852.1441
855.4944
857.3120
860.5780
861.6222
862.0470
862.1322
862.9142
863.1356
863.5741
863.8362
863.9441
864.5309
864.8396
864.9149
865.5876
866.2137
866.5485
866.7446
866.7943
866.8116
867.8430
868.2220
868.6093
868.6619
868.7848
869.1335
869.8596
870.1121
870.3702
870.4860
870.7359
870.9234
871.0414
871.2853
871.3654
871.9629
872.1659
872.2458
872.3718
872.4376
873.0821
873.2424
873.4023
873.9781
874.8031
874.9169
875.1206
875.8243
876.0449
876.1720
876.6745
877.1880
877.2384
877.2805
877.3532
877.5573
878.2716
878.4142
878.4562
878.4590
879.0376
879.2058
879.8172
880.4590
880.5898
881.0254
881.2511
881.6173
881.7743
882.1759
882.9693
884.1183
884.7990
884.8306
884.9315
884.9970
885.2791
885.4908
885.9019
886.0976
886.6715
886.8833
887.5232
888.1900
888.9194
889.2986
889.3540
891.0856
891.2773
891.7510
892.7729
892.8093
894.1661
894.8421
894.9122
895.5847
895.7986
896.2190
896.2207
896.2895
896.7003
896.7640
896.9867
897.9702
898.0739
898.5281
898.7408
899.0478
899.0894
899.5189
899.7876
900.9883
901.2526
901.6590
901.7590
903.1819
903.7893
903.8691
904.0123
904.5353
904.6713
904.8250
905.3485
905.6081
906.2563
906.3960
906.6111
906.7248
906.9582
907.2278
907.5420
907.6195
909.0446
909.0818
910.1083
911.1531
911.8138
911.9637
912.2966
912.6329
912.9183
913.2273
913.4692
913.5938
914.0556
915.5297
915.6188
916.5895
916.7795
917.0822
917.8779
918.7565
919.3593
919.4680
919.9685
920.3962
920.8025
920.8581
921.5920
922.1433
922.4498
922.7512
923.2496
923.3273
923.3857
923.9326
924.3761
924.5256
925.0578
926.0325
926.3683
926.6207
926.7689
927.0150
927.1181
928.9562
929.1580
929.4974
930.0013
930.7896
931.0444
931.7729
932.0071
933.6162
934.0705
935.4218
935.5991
936.0988
937.8534
938.3272
938.8931
939.0585
939.9089
940.9349
941.3676
941.4089
941.7457
942.0620
943.1600
943.2282
943.6812
945.0461
945.5202
945.8626
947.0682
947.4879
948.6926
949.5498
949.7189
950.0300
950.5393
950.7652
951.0946
953.6407
954.8030
955.3984
956.1245
956.5559
956.7280
956.7829
957.7348
958.2813
958.3080
958.7027
959.0343
959.5391
960.8486
960.8936
961.9218
962.0995
962.5198
962.7671
962.9569
963.0744
963.2644
964.2478
964.3319
965.6441
966.3644
966.4698
967.4791
967.6104
967.6836
968.5677
969.5031
970.1576
970.2272
971.6142
971.8492
973.6213
974.3562
974.6463
975.3592
975.7220
976.9535
977.9453
978.9511
979.6200
979.7245
980.0363
981.2697
981.4958
981.9178
982.6449
983.1669
983.3423
983.4007
983.8848
984.0917
984.5684
985.5742
986.4598
986.5449
986.7891
986.8921
987.1995
987.2630
987.3815
989.6048
989.8354
990.2356
990.7472
991.0075
991.0837
991.1113
991.2199
991.6120
992.7325
993.4718
993.5199
993.8836
994.3064
995.2370
996.3491
997.0463
997.4689
998.5050
998.7635
998.9938
999.2648
999.3863
999.8509
999.8960
1001.139
1003.322
1003.711
1003.909
1003.936
1004.531
1004.803
1005.620
1007.954
1008.122
1008.287
1008.378
1008.640
1008.913
1010.257
1010.507
1011.187
1011.799
1013.136
1013.356
1013.738
1014.043
1014.139
1014.426
1017.500
1017.852
1018.059
1018.453
1018.841
1021.153
1021.443
1021.843
1022.365
1023.602
1024.177
1024.755
1025.068
1025.558
1025.736
1025.816
1027.118
1027.205
1028.311
1028.899
1030.116
1030.407
1030.854
1031.489
1031.689
1033.492
1034.382
1034.428
1034.653
1034.904
1035.816
1036.952
1037.748
1037.814
1038.749
1040.305
1041.299
1042.967
1043.686
1043.950
1045.044
1045.972
1048.336
1049.225
1049.484
1049.849
1050.258
1051.220
1051.818
1052.583
1052.778
1052.998
1053.338
1053.686
1054.021
1054.095
1054.529
1055.483
1055.645
1056.530
1057.635
1058.502
1058.709
1059.134
1059.690
1060.133
1060.545
1061.338
1061.500
1062.254
1064.651
1066.423
1067.836
1070.035
1070.364
1072.392
1072.541
1072.692
1073.224
1074.181
1074.436
1075.247
1075.433
1077.243
1077.698
1077.909
1078.591
1078.636
1080.391
1080.452
1080.734
1081.227
1082.008
1083.417
1085.345
1086.250
1086.996
1087.457
1089.028
1090.118
1091.132
1091.357
1092.372
1094.162
1094.815
1096.288
1098.363
1099.021
